elapsed time,opti x,opti y,opti theta,safety_value,throttle,steering,current,voltage,IMU[0],IMU[1],IMU[2],velocity,opti time
0.098427772,0.9194992184638977,0.08776340633630753,-2.0814220905303955,1.0,1.0,0.443311870098114,2.559999942779541,6.929999828338623,-5.489999771118164,-6.929999828338623,47.900001525878906,2.4800000190734863,1687792496.190624
0.198304891,0.7998228669166565,-0.060586147010326385,-2.258483409881592,1.0,1.0,0.43299660086631775,2.559999942779541,6.929999828338623,-5.489999771118164,-6.929999828338623,47.900001525878906,2.4800000190734863,1687792496.290171
0.298302889,0.6591769456863403,-0.1873234361410141,-2.4064953327178955,1.0,1.0,0.443311870098114,2.559999942779541,6.929999828338623,-5.489999771118164,-6.929999828338623,47.900001525878906,2.4800000190734863,1687792496.3904011
0.398417472,0.49923497438430786,-0.2901487648487091,-2.5794646739959717,1.0,1.0,0.36082032322883606,2.559999942779541,6.929999828338623,-5.489999771118164,-6.929999828338623,47.900001525878906,2.4800000190734863,1687792496.4900923
0.49850225400000003,0.3254965841770172,-0.3655846416950226,-2.744645595550537,1.0,1.0,0.32990509271621704,2.559999942779541,6.929999828338623,-5.489999771118164,-6.929999828338623,47.900001525878906,2.4800000190734863,1687792496.590156
0.598484754,0.13798697292804718,-0.4134105443954468,-2.9083187580108643,1.0,1.0,0.3092745840549469,2.559999942779541,6.929999828338623,-5.489999771118164,-6.929999828338623,47.900001525878906,2.4800000190734863,1687792496.6899855
0.698356628,-0.053003083914518356,-0.42687997221946716,-3.0703439712524414,1.0,1.0,0.3092745840549469,2.559999942779541,6.929999828338623,-5.489999771118164,-6.929999828338623,47.900001525878906,2.4800000190734863,1687792496.7902555
0.798428058,-0.24485145509243011,-0.40811362862586975,3.040435314178467,1.0,1.0,0.2783288061618805,2.559999942779541,6.929999828338623,-5.489999771118164,-6.929999828338623,47.900001525878906,2.4800000190734863,1687792496.8903995
0.898598432,-0.4174448847770691,-0.36625659465789795,2.8865807056427,1.0,1.0,0.2783288061618805,2.559999942779541,6.929999828338623,-5.489999771118164,-6.929999828338623,47.900001525878906,2.4800000190734863,1687792496.990613
0.998790979,-0.6109868884086609,-0.2857542932033539,2.7172343730926514,1.0,1.0,0.2783288061618805,2.559999942779541,6.929999828338623,-5.489999771118164,-6.929999828338623,47.900001525878906,2.4800000190734863,1687792497.0905526
1.099205255,-0.7923887968063354,-0.17646722495555878,2.5499155521392822,1.0,1.0,0.26804405450820923,2.559999942779541,6.929999828338623,-5.489999771118164,-6.929999828338623,47.900001525878906,2.4800000190734863,1687792497.1982832
1.198483944,-0.9054407477378845,-0.07847350835800171,2.2590439319610596,1.0,1.0,0.26804405450820923,2.559999942779541,6.929999828338623,-5.489999771118164,-6.929999828338623,47.900001525878906,2.4800000190734863,1687792497.2903206
1.298552036,-0.9054407477378845,-0.07847350835800171,2.2590439319610596,1.0,1.0,0.26804405450820923,2.559999942779541,6.929999828338623,-5.489999771118164,-6.929999828338623,47.900001525878906,2.4800000190734863,1687792497.3905013
1.39843297,-0.9054407477378845,-0.07847350835800171,2.2590439319610596,1.0,1.0,0.26804405450820923,2.559999942779541,6.929999828338623,-5.489999771118164,-6.929999828338623,47.900001525878906,2.4800000190734863,1687792497.4906101
1.498395919,-0.9054407477378845,-0.07847350835800171,2.2590439319610596,1.0,1.0,0.25772881507873535,2.559999942779541,6.929999828338623,-5.489999771118164,-6.929999828338623,47.900001525878906,2.4800000190734863,1687792497.5901165
1.598453998,-0.9054407477378845,-0.07847350835800171,2.2590439319610596,1.0,0.9381999969482422,0.26804405450820923,2.559999942779541,6.929999828338623,-5.489999771118164,-6.929999828338623,47.900001525878906,2.4800000190734863,1687792497.6899338
1.698480606,-0.9054407477378845,-0.07847350835800171,2.2590439319610596,1.0,0.9381999969482422,0.25772881507873535,2.559999942779541,6.929999828338623,-5.489999771118164,-6.929999828338623,47.900001525878906,2.4800000190734863,1687792497.790072
1.798332214,-1.3321679830551147,0.9948802590370178,1.654253602027893,1.0,0.9381999969482422,0.25772881507873535,2.559999942779541,6.929999828338623,-5.489999771118164,-6.929999828338623,47.900001525878906,2.4800000190734863,1687792497.89009
1.898345232,-1.3321679830551147,0.9948802590370178,1.654253602027893,1.0,0.9381999969482422,0.25772881507873535,2.559999942779541,6.929999828338623,-5.489999771118164,-6.929999828338623,47.900001525878906,2.4800000190734863,1687792497.9900265
1.998396158,-1.3321679830551147,0.9948802590370178,1.654253602027893,1.0,0.9381999969482422,0.25772881507873535,2.559999942779541,6.929999828338623,-5.489999771118164,-6.929999828338623,47.900001525878906,2.4800000190734863,1687792498.090123
2.098991632,-1.3321679830551147,0.9948802590370178,1.654253602027893,1.0,0.9381999969482422,0.25772881507873535,2.559999942779541,6.929999828338623,-5.489999771118164,-6.929999828338623,47.900001525878906,2.4800000190734863,1687792498.1983066
2.198500633,-1.3321679830551147,0.9948802590370178,1.654253602027893,1.0,0.9381999969482422,0.13400676846504211,2.559999942779541,6.929999828338623,-5.489999771118164,-6.929999828338623,47.900001525878906,2.4800000190734863,1687792498.290067
2.298462629,-1.0593996047973633,1.857521414756775,2.3219962120056152,1.0,0.9484847784042358,0.13400676846504211,2.559999942779541,6.929999828338623,-5.489999771118164,-6.929999828338623,47.900001525878906,2.4800000190734863,1687792498.390226
2.398591518,-1.0593996047973633,1.857521414756775,2.3219962120056152,1.0,0.9484847784042358,0.13400676846504211,2.559999942779541,6.929999828338623,-5.489999771118164,-6.929999828338623,47.900001525878906,2.4800000190734863,1687792498.490333
2.498901128,-0.5985047817230225,2.22666335105896,0.6473532319068909,1.0,0.9484847784042358,0.13400676846504211,2.559999942779541,6.929999828338623,-5.489999771118164,-6.929999828338623,47.900001525878906,2.4800000190734863,1687792498.59019
2.598870277,-0.39278972148895264,2.3426923751831055,0.5017006993293762,1.0,0.9484847784042358,0.13400676846504211,2.559999942779541,6.929999828338623,-5.489999771118164,-6.929999828338623,47.900001525878906,2.4800000190734863,1687792498.6900997
2.698602676,-0.2027224451303482,2.431152582168579,0.42903637886047363,1.0,0.9484847784042358,0.13400676846504211,2.559999942779541,6.929999828338623,-5.489999771118164,-6.929999828338623,47.900001525878906,2.4800000190734863,1687792498.7901225
2.798720359,5.916692316532135e-06,2.494983196258545,0.34632736444473267,1.0,0.9484847784042358,0.13400676846504211,2.559999942779541,6.929999828338623,-5.489999771118164,-6.929999828338623,47.900001525878906,2.4800000190734863,1687792498.8982954
2.89832282,0.1894642859697342,2.5412399768829346,0.2264173924922943,1.0,0.9484847784042358,0.13400676846504211,2.559999942779541,6.929999828338623,-5.489999771118164,-6.929999828338623,47.900001525878906,2.4800000190734863,1687792498.9900434
2.998338461,0.3155624568462372,2.560091257095337,0.1782945692539215,1.0,0.9484847784042358,0.13400676846504211,2.559999942779541,6.929999828338623,-5.489999771118164,-6.929999828338623,47.900001525878906,2.4800000190734863,1687792499.0900123
3.098343134,0.3155624568462372,2.560091257095337,0.1782945692539215,1.0,0.0,0.49485763907432556,2.559999942779541,6.929999828338623,-5.489999771118164,-6.929999828338623,47.900001525878906,2.4800000190734863,1687792499.190339
3.198358535,0.3155624568462372,2.560091257095337,0.1782945692539215,1.0,0.0,0.8556779623031616,2.559999942779541,6.929999828338623,-5.489999771118164,-6.929999828338623,47.900001525878906,2.4800000190734863,1687792499.290161
3.298557281,0.3155624568462372,2.560091257095337,0.1782945692539215,1.0,0.0,0.8659932017326355,2.559999942779541,6.929999828338623,-5.489999771118164,-6.929999828338623,47.900001525878906,2.4800000190734863,1687792499.390506
3.398556232,0.3155624568462372,2.560091257095337,0.1782945692539215,1.0,-1.0,0.4742271304130554,2.559999942779541,6.929999828338623,-5.489999771118164,-6.929999828338623,47.900001525878906,2.4800000190734863,1687792499.4901605
3.498490572,0.3155624568462372,2.560091257095337,0.1782945692539215,1.0,-1.0,0.3195898234844208,2.559999942779541,6.929999828338623,-5.489999771118164,-6.929999828338623,47.900001525878906,2.4800000190734863,1687792499.5903404
3.5986869329999998,0.3155624568462372,2.560091257095337,0.1782945692539215,1.0,-1.0,0.26804405450820923,2.559999942779541,6.929999828338623,-5.489999771118164,-6.929999828338623,47.900001525878906,2.4800000190734863,1687792499.690176
3.69900155,0.3155624568462372,2.560091257095337,0.1782945692539215,1.0,-1.0,0.18555253744125366,2.559999942779541,6.929999828338623,-5.489999771118164,-6.929999828338623,47.900001525878906,2.4800000190734863,1687792499.7905335
3.798717737,0.3155624568462372,2.560091257095337,0.1782945692539215,1.0,-1.0,0.12369152158498764,2.559999942779541,6.929999828338623,-5.489999771118164,-6.929999828338623,47.900001525878906,2.4800000190734863,1687792499.8904283
3.898619175,0.3155624568462372,2.560091257095337,0.1782945692539215,1.0,-0.9278542399406433,0.12369152158498764,2.559999942779541,6.929999828338623,-5.489999771118164,-6.929999828338623,47.900001525878906,2.4800000190734863,1687792499.9904335
3.998402595,0.3155624568462372,2.560091257095337,0.1782945692539215,1.0,0.0,0.13400676846504211,2.559999942779541,6.929999828338623,-5.489999771118164,-6.929999828338623,47.900001525878906,2.4800000190734863,1687792500.0904799
4.099061727,0.3155624568462372,2.560091257095337,0.1782945692539215,1.0,0.1031220406293869,0.13400676846504211,2.559999942779541,6.929999828338623,-5.489999771118164,-6.929999828338623,47.900001525878906,2.4800000190734863,1687792500.1983864
4.198415994,0.3155624568462372,2.560091257095337,0.1782945692539215,1.0,0.1031220406293869,0.13400676846504211,2.559999942779541,6.929999828338623,-5.489999771118164,-6.929999828338623,47.900001525878906,2.4800000190734863,1687792500.290627
4.298523426,0.3155624568462372,2.560091257095337,0.1782945692539215,1.0,0.49488815665245056,0.24741356074810028,2.559999942779541,6.929999828338623,-5.489999771118164,-6.929999828338623,47.900001525878906,2.4800000190734863,1687792500.390587
4.398389339,0.3155624568462372,2.560091257095337,0.1782945692539215,1.0,0.5051729083061218,0.24741356074810028,2.559999942779541,6.929999828338623,-5.489999771118164,-6.929999828338623,47.900001525878906,2.4800000190734863,1687792500.4900963
4.498356104,0.3155624568462372,2.560091257095337,0.1782945692539215,1.0,0.5051729083061218,0.25772881507873535,2.559999942779541,6.929999828338623,-5.489999771118164,-6.929999828338623,47.900001525878906,2.4800000190734863,1687792500.590117
4.598701715,0.3155624568462372,2.560091257095337,0.1782945692539215,1.0,0.49488815665245056,0.24741356074810028,2.559999942779541,6.929999828338623,-5.489999771118164,-6.929999828338623,47.900001525878906,2.4800000190734863,1687792500.6981823
4.6986188890000005,0.3155624568462372,2.560091257095337,0.1782945692539215,1.0,0.49488815665245056,0.24741356074810028,2.559999942779541,6.929999828338623,-5.489999771118164,-6.929999828338623,47.900001525878906,2.4800000190734863,1687792500.790101
4.798766613,1.7291849851608276,1.6185979843139648,-1.50041663646698,1.0,0.49488815665245056,0.24741356074810028,2.559999942779541,6.929999828338623,-5.489999771118164,-6.929999828338623,47.900001525878906,2.4800000190734863,1687792500.8982
4.898491859,1.726131796836853,1.5802180767059326,-1.54320228099823,1.0,0.49488815665245056,0.24741356074810028,2.559999942779541,6.929999828338623,-5.489999771118164,-6.929999828338623,47.900001525878906,2.4800000190734863,1687792500.9899094
4.999247074,1.7010523080825806,1.4167407751083374,-1.6739230155944824,1.0,0.49488815665245056,0.25772881507873535,2.559999942779541,6.929999828338623,-5.489999771118164,-6.929999828338623,47.900001525878906,2.4800000190734863,1687792501.098303
5.09854412,1.6988235712051392,1.3887076377868652,-1.6843377351760864,1.0,0.49488815665245056,0.25772881507873535,2.559999942779541,6.929999828338623,-5.489999771118164,-6.929999828338623,47.900001525878906,2.4800000190734863,1687792501.190163
5.198616743,1.6351110935211182,1.173183560371399,-1.8408055305480957,1.0,0.443342387676239,0.25772881507873535,2.559999942779541,6.929999828338623,-5.489999771118164,-6.929999828338623,47.900001525878906,2.4800000190734863,1687792501.2902532
5.29903841,1.6255711317062378,1.1530847549438477,-1.9082218408584595,1.0,0.39176610112190247,0.14432203769683838,2.559999942779541,6.929999828338623,-5.489999771118164,-6.929999828338623,47.900001525878906,2.4800000190734863,1687792501.3983848
5.398513078,1.6255711317062378,1.1530847549438477,-1.9082218408584595,1.0,0.39176610112190247,0.0,2.559999942779541,6.929999828338623,-5.489999771118164,-6.929999828338623,47.900001525878906,2.4800000190734863,1687792501.4900284
5.498532295,1.6255711317062378,1.1530847549438477,-1.9082218408584595,1.0,0.39176610112190247,0.0,2.559999942779541,6.929999828338623,-5.489999771118164,-6.929999828338623,47.900001525878906,2.4800000190734863,1687792501.590397
5.598462104,1.6255711317062378,1.1530847549438477,-1.9082218408584595,1.0,0.40208137035369873,-0.25775933265686035,2.559999942779541,6.929999828338623,-5.489999771118164,-6.929999828338623,47.900001525878906,2.4800000190734863,1687792501.6900527
5.698501825,1.2087407112121582,0.5670313239097595,-2.250885009765625,1.0,0.40208137035369873,-0.4742576479911804,2.559999942779541,6.929999828338623,-5.489999771118164,-6.929999828338623,47.900001525878906,2.4800000190734863,1687792501.7905602
5.798514604,1.1139671802520752,0.4488692879676819,-2.2224881649017334,1.0,0.40208137035369873,-0.4845728874206543,2.559999942779541,6.929999828338623,-5.489999771118164,-6.929999828338623,47.900001525878906,2.4800000190734863,1687792501.8905628
5.898398876,1.0073530673980713,0.2881757318973541,-2.0795159339904785,1.0,0.40208137035369873,-0.4845728874206543,2.559999942779541,6.929999828338623,-5.489999771118164,-6.929999828338623,47.900001525878906,2.4800000190734863,1687792501.9905913
5.998583555,0.9316426515579224,0.139018252491951,-1.92684805393219,1.0,0.40208137035369873,-0.49488815665245056,2.559999942779541,6.929999828338623,-5.489999771118164,-6.929999828338623,47.900001525878906,2.4800000190734863,1687792502.0903578
6.098704099,0.8785043358802795,-0.02228149026632309,-1.7829365730285645,1.0,0.40208137035369873,-0.16498306393623352,2.559999942779541,6.929999828338623,-5.489999771118164,-6.929999828338623,47.900001525878906,2.4800000190734863,1687792502.1906104
6.198942899,0.8519197106361389,-0.1919485330581665,-1.638340711593628,1.0,0.40208137035369873,0.0,2.559999942779541,6.929999828338623,-5.489999771118164,-6.929999828338623,47.900001525878906,2.4800000190734863,1687792502.2903306
6.298451662,0.8443014621734619,-0.36955589056015015,-1.5529800653457642,1.0,0.43302711844444275,0.19586779177188873,2.559999942779541,6.929999828338623,-5.489999771118164,-6.929999828338623,47.900001525878906,2.4800000190734863,1687792502.3904316
6.398421764,0.8412359952926636,-0.5568829774856567,-1.560570240020752,1.0,0.43302711844444275,0.29895931482315063,2.559999942779541,6.929999828338623,-5.489999771118164,-6.929999828338623,47.900001525878906,2.4800000190734863,1687792502.490578
6.498711586,0.8135634660720825,-0.7418702244758606,-1.6675596237182617,1.0,0.43302711844444275,0.3401898145675659,2.559999942779541,6.929999828338623,-5.489999771118164,-6.929999828338623,47.900001525878906,2.4800000190734863,1687792502.5905359
6.598953485,0.7654035687446594,-0.950157105922699,-1.8252893686294556,1.0,0.43302711844444275,0.39173558354377747,2.559999942779541,6.929999828338623,-5.489999771118164,-6.929999828338623,47.900001525878906,2.4800000190734863,1687792502.6984515
6.698579073,0.6933323740959167,-1.1184892654418945,-1.9597223997116089,1.0,0.42271187901496887,0.3814508616924286,2.559999942779541,6.929999828338623,-5.489999771118164,-6.929999828338623,47.900001525878906,2.4800000190734863,1687792502.7901087
6.798531055,0.5894639492034912,-1.2841825485229492,-2.1272764205932617,1.0,0.42271187901496887,0.3401898145675659,2.559999942779541,6.929999828338623,-5.489999771118164,-6.929999828338623,47.900001525878906,2.4800000190734863,1687792502.890174
6.898572206,0.46378013491630554,-1.4317899942398071,-2.288522720336914,1.0,0.2680746018886566,0.0,2.559999942779541,6.929999828338623,-5.489999771118164,-6.929999828338623,47.900001525878906,2.4800000190734863,1687792502.9904423
6.998524189,0.30981194972991943,-1.5593810081481934,-2.4640614986419678,1.0,0.0,-0.40208137035369873,2.559999942779541,6.929999828338623,-5.489999771118164,-6.929999828338623,47.900001525878906,2.4800000190734863,1687792503.0903838
7.098366499,0.1588907241821289,-1.6681948900222778,-2.4591031074523926,1.0,0.0,-0.32993561029434204,2.559999942779541,6.929999828338623,-5.489999771118164,-6.929999828338623,47.900001525878906,2.4800000190734863,1687792503.1905925
7.198460817,0.03644493967294693,-1.781725525856018,-2.307748794555664,1.0,-0.4123660922050476,0.0,2.559999942779541,6.929999828338623,-5.489999771118164,-6.929999828338623,47.900001525878906,2.4800000190734863,1687792503.2907934
7.298377514,-0.06017407402396202,-1.8966728448867798,-2.1825833320617676,1.0,-0.5154576301574707,0.0,2.559999942779541,6.929999828338623,-5.489999771118164,-6.929999828338623,47.900001525878906,2.4800000190734863,1687792503.3905263
7.398686647,-0.1416565328836441,-2.004324197769165,-2.155853271484375,1.0,-0.36082032322883606,0.0,2.559999942779541,6.929999828338623,-5.489999771118164,-6.929999828338623,47.900001525878906,2.4800000190734863,1687792503.4905398
7.4985466,-0.21475470066070557,-2.1007473468780518,-2.166414499282837,1.0,-0.36082032322883606,0.0,2.559999942779541,6.929999828338623,-5.489999771118164,-6.929999828338623,47.900001525878906,2.4800000190734863,1687792503.5907807
7.59900999,-0.2777350842952728,-2.1862196922302246,-2.1890504360198975,1.0,-0.39173558354377747,0.0,2.559999942779541,6.929999828338623,-5.489999771118164,-6.929999828338623,47.900001525878906,2.4800000190734863,1687792503.6905727
7.698689937,-0.33599793910980225,-2.2514724731445312,-2.2322349548339844,1.0,0.0,0.0,2.559999942779541,6.929999828338623,-5.489999771118164,-6.929999828338623,47.900001525878906,2.4800000190734863,1687792503.790786
7.798718452,-0.3796951174736023,-2.3115241527557373,-2.2481772899627686,1.0,0.3196203410625458,0.0,2.559999942779541,6.929999828338623,-5.489999771118164,-6.929999828338623,47.900001525878906,2.4800000190734863,1687792503.8905904
7.898678064,-0.4312906563282013,-2.37235689163208,-2.203225612640381,1.0,1.0,0.0,2.559999942779541,6.929999828338623,-5.489999771118164,-6.929999828338623,47.900001525878906,2.4800000190734863,1687792503.9903035
7.998614788,-0.47986099123954773,-2.4335951805114746,-2.1988375186920166,1.0,0.7629322409629822,0.0,2.559999942779541,6.929999828338623,-5.489999771118164,-6.929999828338623,47.900001525878906,2.4800000190734863,1687792504.0904572
8.099870681,-0.5389019250869751,-2.5023512840270996,-2.2118170261383057,1.0,0.6082949042320251,0.0,2.559999942779541,6.929999828338623,-5.489999771118164,-6.929999828338623,47.900001525878906,2.4800000190734863,1687792504.1904519
8.199185848,-0.6053953170776367,-2.5827813148498535,-2.2519490718841553,1.0,0.6082949042320251,0.0,2.559999942779541,6.929999828338623,-5.489999771118164,-6.929999828338623,47.900001525878906,2.4800000190734863,1687792504.2905207
8.298454284,-0.681259036064148,-2.6657004356384277,-2.251127004623413,1.0,0.0,0.0,2.559999942779541,6.929999828338623,-5.489999771118164,-6.929999828338623,47.900001525878906,2.4800000190734863,1687792504.390478
8.398301124,-0.7609953284263611,-2.747119188308716,-2.260518789291382,1.0,-0.9587695002555847,0.0,2.559999942779541,6.929999828338623,-5.489999771118164,-6.929999828338623,47.900001525878906,2.4800000190734863,1687792504.4907115
