elapsed time,opti x,opti y,opti theta,safety_value,throttle,steering,current,voltage,IMU[0],IMU[1],IMU[2],velocity,opti time
0.099401712,0.4166335463523865,-3.2486839294433594,-2.527693748474121,1.0,-1.0,0.32990509271621704,0.5799999833106995,7.5,-2.0199999809265137,-2.359999895095825,-104.33000183105469,0.10000000149011612,1687791895.183049
0.199424267,0.4323880672454834,-3.317044734954834,-2.704369068145752,1.0,0.0,0.0,0.27000001072883606,7.53000020980835,-0.8399999737739563,-4.099999904632568,-95.94000244140625,0.0,1687791895.282948
0.299423933,0.4430076479911804,-3.355978012084961,-2.867795705795288,1.0,0.06186101958155632,0.0,0.5199999809265137,7.5,-0.6700000166893005,-4.110000133514404,-83.69999694824219,0.0,1687791895.383102
0.399489641,0.4466458559036255,-3.3638761043548584,-2.920335292816162,1.0,0.0,0.3505050837993622,0.3199999928474426,7.53000020980835,-0.4099999964237213,-4.159999847412109,-57.25,0.0,1687791895.4829073
0.49950242,0.4468967914581299,-3.363276720046997,-2.922877550125122,1.0,0.0,0.7629017233848572,0.20999999344348907,7.550000190734863,0.5799999833106995,-1.4700000286102295,8.630000114440918,0.0,1687791895.5830197
0.599503994,0.446682870388031,-3.363231897354126,-2.9245238304138184,1.0,0.0,1.0,0.6800000071525574,7.53000020980835,0.3799999952316284,-0.3700000047683716,0.3400000035762787,0.0,1687791895.6830301
0.699707985,0.4463375508785248,-3.3631789684295654,-2.9137589931488037,1.0,0.0,1.0,0.6299999952316284,7.53000020980835,-0.18000000715255737,-0.30000001192092896,1.690000057220459,0.0,1687791895.7827234
0.799827099,0.44601327180862427,-3.3636114597320557,-2.9198434352874756,1.0,0.1752678006887436,1.0,0.550000011920929,7.53000020980835,-0.0,-0.46000000834465027,-0.44999998807907104,0.0,1687791895.8830795
0.899536371,0.44029971957206726,-3.3622443675994873,-2.917290449142456,1.0,1.0,1.0,0.3100000023841858,7.550000190734863,0.46000000834465027,-0.9200000166893005,2.0299999713897705,0.0,1687791895.983278
0.999460935,0.41951292753219604,-3.3616690635681152,-2.9751367568969727,1.0,1.0,1.0,1.3300000429153442,7.53000020980835,-0.11999999731779099,0.23999999463558197,-10.210000038146973,0.10000000149011612,1687791896.0829601
1.099329948,0.3609708249568939,-3.358725070953369,-3.084423065185547,1.0,1.0,1.0,2.559999942779541,7.21999979019165,2.359999895095825,0.6200000047683716,-59.16999816894531,0.9300000071525574,1687791896.1830842
1.199359178,0.26945704221725464,-3.3430287837982178,3.015195846557617,1.0,1.0,1.0,2.559999942779541,6.929999828338623,3.7799999713897705,-2.3399999141693115,-64.61000061035156,1.909999966621399,1687791896.2827344
1.299410581,0.1483026146888733,-3.3121368885040283,2.723602294921875,1.0,0.0,1.0,2.559999942779541,6.96999979019165,6.25,0.4399999976158142,-160.8699951171875,2.109999895095825,1687791896.3830914
1.399325609,0.027345115318894386,-3.2518601417541504,2.4468955993652344,1.0,0.0,1.0,2.559999942779541,7.0,8.960000038146973,-5.550000190734863,-185.8300018310547,2.2200000286102295,1687791896.4827037
1.499354839,-0.05820992588996887,-3.177264451980591,2.2234208583831787,1.0,0.6082949042320251,1.0,0.2199999988079071,7.400000095367432,0.2199999988079071,-2.069999933242798,-152.10000610351562,1.0800000429153442,1687791896.5828762
1.599426746,-0.11576543748378754,-3.0958948135375977,1.9796432256698608,1.0,1.0,1.0,0.20999999344348907,7.53000020980835,-1.399999976158142,-5.880000114440918,-122.16999816894531,0.8799999952316284,1687791896.683125
1.699470043,-0.16405074298381805,-2.983008623123169,1.7059873342514038,1.0,1.0,1.0,2.559999942779541,7.380000114440918,1.2400000095367432,-5.989999771118164,-95.87000274658203,1.5,1687791896.7827587
1.799502849,-0.1879032850265503,-2.842602252960205,1.4652537107467651,1.0,1.0,1.0,2.559999942779541,6.96999979019165,5.570000171661377,-5.070000171661377,-120.83999633789062,2.2699999809265137,1687791896.883088
1.8995034689999999,-0.1818169802427292,-2.686746120452881,1.1991544961929321,1.0,1.0,0.02059999480843544,2.559999942779541,7.050000190734863,0.6499999761581421,-4.920000076293945,-148.35000610351562,2.4800000190734863,1687791896.9832394
1.99959588,-0.14812138676643372,-2.5194344520568848,0.9306797385215759,1.0,1.0,-0.9794304966926575,2.559999942779541,7.03000020980835,2.7100000381469727,-4.679999828338623,-135.38999938964844,2.5299999713897705,1687791897.0829577
2.099539757,-0.07569114863872528,-2.3572659492492676,0.8437405228614807,1.0,1.0,-0.9794304966926575,2.559999942779541,7.050000190734863,3.4200000762939453,-9.84000015258789,-146.42999267578125,2.7300000190734863,1687791897.1831605
2.199561596,0.011596747674047947,-2.1805710792541504,0.8714540004730225,1.0,1.0,-0.9794304966926575,2.559999942779541,7.079999923706055,8.949999809265137,-6.260000228881836,-60.540000915527344,2.7899999618530273,1687791897.2829638
2.299506187,0.11247780919075012,-1.9951976537704468,1.1421335935592651,1.0,1.0,-0.9794304966926575,2.559999942779541,7.050000190734863,7.949999809265137,8.59000015258789,135.0800018310547,2.630000114440918,1687791897.3826706
2.399451971,0.2011125236749649,-1.7833136320114136,1.3802106380462646,1.0,1.0,-0.9794304966926575,2.559999942779541,7.050000190734863,8.609999656677246,4.119999885559082,173.16000366210938,2.630000114440918,1687791897.4831657
2.499289274,0.275901734828949,-1.5532503128051758,1.5534523725509644,1.0,1.0,-0.9794304966926575,2.559999942779541,7.079999923706055,6.579999923706055,-1.8200000524520874,167.69000244140625,2.8399999141693115,1687791897.582921
2.599426508,0.32446855306625366,-1.3022223711013794,1.728278636932373,1.0,1.0,-0.9794304966926575,2.559999942779541,7.099999904632568,-0.8600000143051147,-1.7899999618530273,130.58999633789062,3.0399999618530273,1687791897.6831186
2.699527979,0.34197118878364563,-1.039228916168213,1.8264803886413574,1.0,1.0,-0.9794304966926575,2.559999942779541,7.099999904632568,3.8299999237060547,8.569999694824219,68.9000015258789,3.200000047683716,1687791897.782793
2.799476146,0.3365251123905182,-0.767687201499939,1.9045852422714233,1.0,1.0,-0.9794304966926575,2.559999942779541,7.130000114440918,3.619999885559082,1.4700000286102295,66.66999816894531,3.299999952316284,1687791897.8829732
2.899482727,0.29775360226631165,-0.4883470833301544,1.92683744430542,1.0,0.7526169419288635,-0.25775933265686035,2.559999942779541,7.130000114440918,11.6899995803833,7.340000152587891,8.670000076293945,3.299999952316284,1687791897.9829109
2.999578714,0.2263248711824417,-0.20617903769016266,1.933069109916687,1.0,0.0,1.0,2.559999942779541,7.130000114440918,-8.029999732971191,-7.929999828338623,7.78000020980835,3.3499999046325684,1687791898.0829444
3.099633932,0.13466207683086395,0.07274866104125977,1.9805887937545776,1.0,-0.2370983064174652,1.0,2.559999942779541,7.130000114440918,0.699999988079071,9.239999771118164,11.5600004196167,3.25,1687791898.1829531
3.199482918,0.057291943579912186,0.34533652663230896,1.8536428213119507,1.0,-1.0,1.0,0.4699999988079071,7.429999828338623,8.239999771118164,-1.3899999856948853,12.210000038146973,2.7300000190734863,1687791898.2829652
3.29944086,-0.0013614329509437084,0.5943969488143921,1.6514686346054077,1.0,-1.0,1.0,0.36000001430511475,7.5,-2.690000057220459,-3.9800000190734863,-112.83000183105469,2.319999933242798,1687791898.383072
3.399568557,-0.03533705696463585,0.7392836213111877,1.5271925926208496,1.0,-1.0,1.0,0.10999999940395355,7.53000020980835,-3.7799999713897705,-6.289999961853027,-105.58999633789062,0.8799999952316284,1687791898.4831197
3.499679565,-0.05854262411594391,0.8570531010627747,1.4386296272277832,1.0,-1.0,1.0,0.10999999940395355,7.53000020980835,-2.740000009536743,-4.139999866485596,-93.01000213623047,0.5199999809265137,1687791898.5832481
3.599511623,-0.09281060844659805,1.0726584196090698,1.24878990650177,1.0,-1.0,1.0,0.10999999940395355,7.53000020980835,-3.2300000190734863,-1.4600000381469727,-86.62000274658203,0.36000001430511475,1687791898.6829462
3.699532032,-0.09281060844659805,1.0726584196090698,1.24878990650177,1.0,0.28867459297180176,1.0,0.10999999940395355,7.53000020980835,-1.2799999713897705,-2.3499999046325684,-73.66999816894531,0.3100000023841858,1687791898.7829552
3.799465179,-0.09281060844659805,1.0726584196090698,1.24878990650177,1.0,0.5773491859436035,1.0,0.10999999940395355,7.53000020980835,-2.7799999713897705,-3.950000047683716,-71.1500015258789,0.20999999344348907,1687791898.8829916
3.899348259,-0.09281060844659805,1.0726584196090698,1.24878990650177,1.0,0.1340373009443283,1.0,0.6800000071525574,7.53000020980835,2.380000114440918,-7.920000076293945,-57.33000183105469,0.5199999809265137,1687791898.9831934
3.999396801,-0.09281060844659805,1.0726584196090698,1.24878990650177,1.0,0.14435255527496338,1.0,2.559999942779541,7.099999904632568,3.5,-2.880000114440918,-46.119998931884766,1.75,1687791899.0832155
4.099332332,-0.09281060844659805,1.0726584196090698,1.24878990650177,1.0,0.1340373009443283,1.0,1.0499999523162842,7.380000114440918,-2.200000047683716,-0.5,-73.66000366210938,0.9800000190734863,1687791899.1830912
4.19947195,0.10778950154781342,1.5613603591918945,0.4322262108325958,1.0,0.16498306393623352,1.0,0.8399999737739563,7.5,-1.2400000095367432,0.1899999976158142,-69.36000061035156,0.7200000286102295,1687791899.2830873
4.299431085,0.19156251847743988,1.5733214616775513,0.28683850169181824,1.0,1.0,1.0,0.6899999976158142,7.5,1.0800000429153442,-1.7999999523162842,-69.5999984741211,0.7200000286102295,1687791899.3829827
4.399543762,0.2784913182258606,1.5738894939422607,0.12020763009786606,1.0,0.7423017024993896,1.0,1.0700000524520874,7.46999979019165,0.6899999976158142,-0.5600000023841858,-77.62999725341797,0.6700000166893005,1687791899.483031
4.499643087,0.39972954988479614,1.5631093978881836,-0.13818036019802094,1.0,0.7010712027549744,1.0,2.559999942779541,7.28000020980835,3.0799999237060547,-1.5499999523162842,-110.06999969482422,1.340000033378601,1687791899.5831575
4.599655151,0.4946894645690918,1.5393881797790527,-0.27249523997306824,1.0,0.7010712027549744,1.0,2.559999942779541,6.929999828338623,6.210000038146973,-7.610000133514404,-138.4499969482422,2.109999895095825,1687791899.683049
4.699665069,0.4946894645690918,1.5393881797790527,-0.27249523997306824,1.0,0.7010712027549744,1.0,2.559999942779541,7.03000020980835,-2.200000047683716,-8.520000457763672,-171.05999755859375,2.369999885559082,1687791899.783057
4.799531221,0.4946894645690918,1.5393881797790527,-0.27249523997306824,1.0,0.7010712027549744,1.0,2.559999942779541,7.03000020980835,3.190000057220459,-2.569999933242798,-151.0800018310547,2.630000114440918,1687791899.8831081
4.899504423,0.4946894645690918,1.5393881797790527,-0.27249523997306824,1.0,0.7010712027549744,1.0,2.559999942779541,7.079999923706055,3.2699999809265137,6.46999979019165,-179.25,2.7300000190734863,1687791899.9829786
4.999824047,1.1137897968292236,1.083719253540039,-1.4368103742599487,1.0,0.7423017024993896,1.0,2.559999942779541,7.099999904632568,8.550000190734863,-4.199999809265137,-134.0800018310547,2.890000104904175,1687791900.0831404
5.099760532,1.2085813283920288,0.9128341674804688,-1.6705743074417114,1.0,0.9691152572631836,1.0,2.559999942779541,7.099999904632568,5.559999942779541,-1.659999966621399,-160.5800018310547,2.990000009536743,1687791900.1827953
5.199406385,1.2749450206756592,0.7298110127449036,-1.8766666650772095,1.0,0.9588000178337097,1.0,2.559999942779541,7.130000114440918,1.1399999856948853,-9.4399995803833,-130.07000732421875,2.990000009536743,1687791900.28293
5.299463033,1.308305263519287,0.5403507351875305,-2.077042579650879,1.0,0.9588000178337097,1.0,2.559999942779541,7.099999904632568,2.109999895095825,-3.0999999046325684,-88.19999694824219,3.0399999618530273,1687791900.3827536
5.39946723,1.3112837076187134,0.34884339570999146,-2.2620463371276855,1.0,0.9588000178337097,1.0,2.559999942779541,7.099999904632568,0.550000011920929,-1.5099999904632568,-87.08999633789062,2.990000009536743,1687791900.4830031
5.499403715,1.2840956449508667,0.16270646452903748,-2.4415810108184814,1.0,0.9588000178337097,1.0,2.559999942779541,7.099999904632568,-1.4600000381469727,4.329999923706055,-101.75,3.0399999618530273,1687791900.583106
5.599637031,1.2277628183364868,-0.012431804090738297,-2.587329626083374,1.0,0.9381999969482422,1.0,2.559999942779541,7.099999904632568,2.5799999237060547,-0.7900000214576721,-73.83000183105469,2.990000009536743,1687791900.6831174
5.699718475,1.14376962184906,-0.17539525032043457,-2.7505366802215576,1.0,0.9381999969482422,1.0,2.559999942779541,7.099999904632568,-1.7400000095367432,-12.739999771118164,-92.69999694824219,3.0399999618530273,1687791900.7831373
5.799463987,1.0348255634307861,-0.31960389018058777,-2.89674973487854,1.0,0.9484847784042358,1.0,2.559999942779541,7.099999904632568,-0.6299999952316284,-5.130000114440918,-87.6500015258789,2.990000009536743,1687791900.88305
5.899452448,0.9032236933708191,-0.4425690770149231,-3.058483123779297,1.0,0.9588000178337097,1.0,2.559999942779541,7.099999904632568,0.18000000715255737,3.3299999237060547,-94.19999694824219,2.940000057220459,1687791900.9830554
5.999298095,0.7539518475532532,-0.5398544073104858,3.0762739181518555,1.0,0.9588000178337097,1.0,2.559999942779541,7.079999923706055,6.460000038146973,-0.9800000190734863,-90.5,2.940000057220459,1687791901.0830507
6.099408388,0.6019496917724609,-0.6030853390693665,2.9152073860168457,1.0,0.9588000178337097,1.0,2.559999942779541,7.099999904632568,2.3399999141693115,-6.380000114440918,-128.72999572753906,2.990000009536743,1687791901.1832952
6.199461937,0.41367051005363464,-0.6488940715789795,2.7790379524230957,1.0,0.9588000178337097,1.0,2.559999942779541,7.079999923706055,4.929999828338623,-6.739999771118164,-111.06999969482422,2.940000057220459,1687791901.2829714
6.299502849,0.22899509966373444,-0.6593425869941711,2.6317226886749268,1.0,0.9588000178337097,1.0,2.559999942779541,7.079999923706055,5.909999847412109,-6.050000190734863,-78.8499984741211,2.890000104904175,1687791901.3830686
6.399602174,0.04793405532836914,-0.6347669959068298,2.5069847106933594,1.0,0.9588000178337097,1.0,2.559999942779541,7.079999923706055,-2.9000000953674316,-6.0,-93.0199966430664,2.890000104904175,1687791901.4830933
6.49961853,-0.1269216388463974,-0.579075038433075,2.3921802043914795,1.0,0.9484847784042358,1.0,2.559999942779541,7.079999923706055,-0.05000000074505806,-3.049999952316284,-77.80999755859375,2.940000057220459,1687791901.5834262
6.599533796,-0.29502424597740173,-0.48845532536506653,2.2911555767059326,1.0,0.9484847784042358,1.0,2.559999942779541,7.050000190734863,-6.03000020980835,-4.619999885559082,-57.7400016784668,2.8399999141693115,1687791901.6831853
6.699492693,-0.45243850350379944,-0.36956650018692017,2.1984219551086426,1.0,0.9484847784042358,1.0,2.559999942779541,7.050000190734863,-2.4600000381469727,-4.010000228881836,-69.19999694824219,2.8399999141693115,1687791901.7830622
6.799469232,-0.5965806245803833,-0.2189970165491104,2.105499505996704,1.0,0.9484847784042358,1.0,2.559999942779541,7.050000190734863,-2.119999885559082,-1.1799999475479126,-63.209999084472656,2.940000057220459,1687791901.882928
6.899347067,-0.7169597148895264,-0.044410690665245056,1.975754737854004,1.0,0.9484847784042358,1.0,2.559999942779541,7.079999923706055,1.4299999475479126,-5.639999866485596,-50.63999938964844,2.890000104904175,1687791901.9830825
6.999550581,-0.8367341756820679,0.15096279978752136,1.8404288291931152,1.0,0.9484847784042358,1.0,2.559999942779541,7.079999923706055,6.440000057220459,-1.0800000429153442,-51.720001220703125,2.990000009536743,1687791902.0830941
7.099612713,-0.9062790274620056,0.3192245364189148,1.69758939743042,1.0,0.9484847784042358,1.0,2.559999942779541,7.079999923706055,-1.0700000524520874,-2.759999990463257,-98.75,3.0399999618530273,1687791902.1828496
7.1995444299999996,-0.9430078864097595,0.4700194299221039,1.6886510848999023,1.0,0.9484847784042358,1.0,2.559999942779541,7.099999904632568,-5.960000038146973,-4.480000019073486,-109.33999633789062,3.25,1687791902.2829835
7.299621105,-0.9430078864097595,0.4700194299221039,1.6886510848999023,1.0,0.32993561029434204,1.0,2.559999942779541,7.099999904632568,-5.960000038146973,-4.480000019073486,-109.33999633789062,3.25,1687791902.3829641
7.399461269,-0.9430078864097595,0.4700194299221039,1.6886510848999023,1.0,0.0,1.0,2.559999942779541,7.099999904632568,0.9900000095367432,3.25,-106.62999725341797,3.3499999046325684,1687791902.483082
7.499634981,-0.9430078864097595,0.4700194299221039,1.6886510848999023,1.0,0.19589830935001373,1.0,2.559999942779541,7.130000114440918,-11.220000267028809,-4.389999866485596,-128.0399932861328,3.1500000953674316,1687791902.5829766
7.599682569,-0.9430078864097595,0.4700194299221039,1.6886510848999023,1.0,0.2371288239955902,1.0,0.10999999940395355,7.449999809265137,-3.430000066757202,-3.5299999713897705,-133.52000427246094,1.809999942779541,1687791902.6829493
7.699627399,-0.9430078864097595,0.4700194299221039,1.6886510848999023,1.0,0.2371288239955902,1.0,1.9700000286102295,7.380000114440918,1.559999942779541,-2.799999952316284,-120.55999755859375,1.340000033378601,1687791902.7833068
7.799568653,-0.8019545674324036,1.8676538467407227,0.17398391664028168,1.0,0.2371288239955902,1.0,2.049999952316284,7.380000114440918,0.8600000143051147,0.20000000298023224,-128.17999267578125,1.2899999618530273,1687791902.8829803
7.899504184,-0.7764251828193665,1.8928414583206177,0.194024920463562,1.0,0.2371288239955902,1.0,2.069999933242798,7.349999904632568,0.18000000715255737,-4.630000114440918,-106.69000244140625,1.0800000429153442,1687791902.9830616
7.999296665,-0.7764251828193665,1.8928414583206177,0.194024920463562,1.0,0.25775933265686035,1.0,2.069999933242798,7.349999904632568,-3.5899999141693115,-6.75,-92.05000305175781,0.9800000190734863,1687791903.0829701
8.099488497,-0.7764251828193665,1.8928414583206177,0.194024920463562,1.0,0.5464339256286621,1.0,2.309999942779541,7.329999923706055,-1.3200000524520874,-7.0,-60.790000915527344,0.9300000071525574,1687791903.1830976
8.199381828,-0.7764251828193665,1.8928414583206177,0.194024920463562,1.0,0.5464339256286621,1.0,2.559999942779541,7.079999923706055,-0.8100000023841858,-1.3899999856948853,-68.66999816894531,1.8600000143051147,1687791903.283066
8.299467325,-0.38460421562194824,2.1058943271636963,-0.48462042212486267,1.0,0.5464339256286621,1.0,2.559999942779541,7.0,0.23000000417232513,-3.25,-97.62000274658203,2.369999885559082,1687791903.382967
8.399584293,-0.2920846939086914,2.065462589263916,-0.6762892007827759,1.0,0.5464339256286621,1.0,2.559999942779541,7.050000190734863,11.210000038146973,-10.3100004196167,-114.0,2.5799999237060547,1687791903.4828427
8.499509334,-0.20955055952072144,2.018181324005127,-0.7474809288978577,1.0,0.5464339256286621,1.0,2.559999942779541,7.0,4.119999885559082,8.789999961853027,-66.2300033569336,2.5299999713897705,1687791903.5827549
8.599613189,-0.0634676069021225,1.9055840969085693,-1.0408639907836914,1.0,0.5464339256286621,1.0,2.559999942779541,7.03000020980835,6.559999942779541,-0.7799999713897705,-78.87999725341797,2.5799999237060547,1687791903.6830146
8.699589491,0.06261187791824341,1.7497233152389526,-1.2857862710952759,1.0,0.5361186265945435,1.0,2.559999942779541,7.050000190734863,3.4200000762939453,-9.010000228881836,-90.1500015258789,2.680000066757202,1687791903.7830951
8.799633264,0.13993245363235474,1.5918272733688354,-1.4866708517074585,1.0,0.5464339256286621,1.0,2.559999942779541,7.079999923706055,-0.9800000190734863,-12.979999542236328,-129.4199981689453,2.7899999618530273,1687791903.8830929
8.899546623,0.199530228972435,1.4150182008743286,-1.7242794036865234,1.0,0.5361186265945435,1.0,2.559999942779541,7.079999923706055,8.600000381469727,-5.699999809265137,-132.85000610351562,2.940000057220459,1687791903.9831955
8.999673128,0.23224616050720215,1.2264713048934937,-1.9370524883270264,1.0,0.5464339256286621,1.0,2.559999942779541,7.079999923706055,1.4800000190734863,-13.479999542236328,-116.55999755859375,2.940000057220459,1687791904.082964
