elapsed time,opti x,opti y,opti theta,safety_value,throttle,steering,current,voltage,IMU[0],IMU[1],IMU[2],velocity,opti time
0.096300125,0.3363029956817627,-1.0227371454238892,-0.23251453042030334,1.0,-1.0,-0.9794304966926575,2.200000047683716,7.179999828338623,-5.190000057220459,2.0,-136.02000427246094,1.809999942779541,1688148553.6179926
0.195587396,0.1541336178779602,-1.0312787294387817,-0.4797448217868805,1.0,-1.0,-0.9794304966926575,2.200000047683716,7.179999828338623,1.2899999618530273,11.829999923706055,-126.6500015258789,1.8600000143051147,1688148553.7269928
0.29515337900000005,-0.026237500831484795,-0.9939391016960144,-0.7394325733184814,1.0,-1.0,-0.9794304966926575,2.200000047683716,7.179999828338623,-0.6600000262260437,4.96999979019165,-125.37000274658203,1.8600000143051147,1688148553.8357902
0.39569234799999997,-0.1932169497013092,-0.913555920124054,-0.9847385287284851,1.0,-1.0,-0.9794304966926575,2.200000047683716,7.179999828338623,-1.7599999904632568,3.8399999141693115,-129.86000061035156,1.909999966621399,1688148553.944734
0.49581599200000004,-0.3360580503940582,-0.7949647903442383,-1.2443313598632812,1.0,-1.0,-0.9794304966926575,2.200000047683716,7.179999828338623,-0.14000000059604645,3.319999933242798,-123.26000213623047,1.8600000143051147,1688148554.0536926
0.5952968590000001,-0.44514450430870056,-0.6435455679893494,-1.485449194908142,1.0,-1.0,-0.9794304966926575,2.200000047683716,7.179999828338623,-1.3700000047683716,4.78000020980835,-130.6199951171875,1.909999966621399,1688148554.1626687
0.695291757,-0.48533934354782104,-0.5590892434120178,-1.6004585027694702,1.0,-1.0,-0.9794304966926575,2.190000057220459,7.179999828338623,-4.03000020980835,-1.5399999618530273,-115.55000305175781,1.8600000143051147,1688148554.2168527
0.795406103,-0.5332951545715332,-0.3771754503250122,-1.8271865844726562,1.0,-1.0,-0.9794304966926575,2.190000057220459,7.179999828338623,-3.1600000858306885,2.3399999141693115,-127.38999938964844,1.8600000143051147,1688148554.325654
0.895128011,-0.5381466150283813,-0.18761472404003143,-2.0660183429718018,1.0,-1.0,-0.9794304966926575,2.200000047683716,7.179999828338623,-0.27000001072883606,1.059999942779541,-116.58000183105469,1.8600000143051147,1688148554.4346294
0.995329856,-0.4972127676010132,-0.0024156244471669197,-2.32637357711792,1.0,-1.0,-0.9794304966926575,2.190000057220459,7.179999828338623,0.0,0.0,0.0,1.909999966621399,1688148554.5436466
1.096531868,-0.41447150707244873,0.16941207647323608,-2.584954261779785,1.0,-1.0,-0.9794304966926575,2.200000047683716,7.179999828338623,0.17000000178813934,3.2699999809265137,-156.72000122070312,1.9600000381469727,1688148554.6526392
1.195970535,-0.2934871017932892,0.313924103975296,-2.8439571857452393,1.0,-1.0,-0.9794304966926575,2.190000057220459,7.179999828338623,-3.569999933242798,6.78000020980835,-133.36000061035156,1.9600000381469727,1688148554.761507
1.29539895,-0.22096240520477295,0.37382397055625916,-2.962627410888672,1.0,-1.0,-0.9794304966926575,2.200000047683716,7.179999828338623,-2.319999933242798,0.36000001430511475,-113.6500015258789,1.909999966621399,1688148554.8157768
1.3954811089999999,-0.05710342526435852,0.46580538153648376,3.0783164501190186,1.0,-1.0,-0.9794304966926575,2.190000057220459,7.179999828338623,-2.9100000858306885,1.8799999952316284,-129.60000610351562,1.909999966621399,1688148554.924907
1.495992422,0.12382537126541138,0.5130805373191833,2.8473596572875977,1.0,-1.0,0.4123660922050476,2.200000047683716,7.179999828338623,-4.710000038146973,5.119999885559082,-136.42999267578125,1.909999966621399,1688148555.0339587
1.595551252,0.30142518877983093,0.5141470432281494,2.638409376144409,1.0,-1.0,1.0,2.559999942779541,7.130000114440918,-1.3700000047683716,5.550000190734863,-101.37000274658203,1.8600000143051147,1688148555.138122
1.695719003,0.48162904381752014,0.46781298518180847,2.5088605880737305,1.0,-1.0,1.0,2.4100000858306885,7.150000095367432,0.05000000074505806,2.2200000286102295,-65.81999969482422,1.909999966621399,1688148555.2469914
1.795745134,0.6360241770744324,0.37406492233276367,2.552921772003174,1.0,-1.0,1.0,2.369999885559082,7.150000095367432,-0.28999999165534973,9.3100004196167,37.900001525878906,1.809999942779541,1688148555.3555245
1.896096944,0.7811498641967773,0.25450435280799866,2.8676598072052,1.0,-0.9690847396850586,1.0,2.2100000381469727,7.179999828338623,-6.269999980926514,1.309999942779541,175.9600067138672,1.7000000476837158,1688148555.4650402
1.995249033,0.8616464138031006,0.20273518562316895,3.0293235778808594,1.0,-0.16495254635810852,0.9587695002555847,2.200000047683716,7.179999828338623,1.4199999570846558,-12.989999771118164,169.4499969482422,1.809999942779541,1688148555.51908
2.095419407,1.033055067062378,0.13629908859729767,-2.997663736343384,1.0,-0.15463729202747345,0.0,0.8899999856948853,7.21999979019165,2.5399999618530273,-6.019999980926514,132.75,1.600000023841858,1688148555.6279063
2.19506669,1.1919344663619995,0.12161456793546677,-2.776546001434326,1.0,-0.1752372831106186,0.40205085277557373,0.8299999833106995,7.28000020980835,3.2899999618530273,-6.869999885559082,103.52999877929688,1.3899999856948853,1688148555.7370472
2.295139312,1.3219720125198364,0.14816562831401825,-2.6637635231018066,1.0,-0.1752372831106186,0.04123050719499588,1.0,7.300000190734863,0.8199999928474426,-1.2799999713897705,48.97999954223633,1.2400000095367432,1688148555.8411214
2.395343542,1.4373884201049805,0.1988343745470047,-2.6184723377227783,1.0,-0.18555253744125366,-0.9794304966926575,0.75,7.300000190734863,-2.630000114440918,-1.7899999618530273,32.619998931884766,1.1299999952316284,1688148555.9494734
2.4952716820000003,1.5339213609695435,0.25796058773994446,-2.7058844566345215,1.0,-0.2783288061618805,0.0,1.0700000524520874,7.28000020980835,-1.340000033378601,3.609999895095825,-54.2599983215332,1.1299999952316284,1688148556.0585184
2.59551692,1.5778286457061768,0.287452757358551,-2.7918829917907715,1.0,-0.36082032322883606,1.0,1.899999976158142,7.25,2.0799999237060547,2.2799999713897705,-87.26000213623047,1.0299999713897705,1688148556.113013
2.695276975,1.6764870882034302,0.3315199613571167,-2.896028518676758,1.0,-0.3711355924606323,1.0,1.7699999809265137,7.25,-2.1700000762939453,1.7799999713897705,-19.440000534057617,1.0299999713897705,1688148556.2220254
2.795303583,1.7907929420471191,0.34878435730934143,-2.746992826461792,1.0,-0.3814508616924286,1.0,1.7400000095367432,7.21999979019165,3.690000057220459,2.4700000286102295,108.11000061035156,1.0800000429153442,1688148556.3311918
2.895277738,1.9082413911819458,0.37524861097335815,-2.5288164615631104,1.0,-0.40205085277557373,0.0,1.5499999523162842,7.21999979019165,-2.6600000858306885,-4.090000152587891,111.48999786376953,1.0800000429153442,1688148556.4396968
2.995403766,2.0193610191345215,0.4284507930278778,-2.3399264812469482,1.0,-0.39173558354377747,0.0,2.0799999237060547,7.179999828338623,-1.6399999856948853,-2.2799999713897705,107.4000015258789,1.1299999952316284,1688148556.5488284
3.0954196449999998,2.110171318054199,0.5120638608932495,-2.3311173915863037,1.0,-0.39173558354377747,0.0,1.6799999475479126,7.21999979019165,0.9100000262260437,-4.28000020980835,-4.800000190734863,1.1299999952316284,1688148556.6576304
3.195365429,2.151733160018921,0.5602007508277893,-2.366628408432007,1.0,-0.3505050837993622,1.0,1.8700000047683716,7.21999979019165,-2.0,0.6800000071525574,-40.779998779296875,1.190000057220459,1688148556.7119615
3.295574903,2.2453885078430176,0.6543645262718201,-2.4104347229003906,1.0,0.0,0.32990509271621704,2.0199999809265137,7.179999828338623,5.510000228881836,2.549999952316284,7.150000095367432,1.190000057220459,1688148556.8212051
3.395024776,2.3446133136749268,0.7337190508842468,-2.3104584217071533,1.0,0.0,1.0,0.5199999809265137,7.329999923706055,-0.3400000035762787,0.18000000715255737,49.54999923706055,1.1299999952316284,1688148556.9298546
3.495218038,2.42889404296875,0.8090221881866455,-2.1688308715820312,1.0,0.0,1.0,0.7300000190734863,7.28000020980835,2.0,-1.649999976158142,87.01000213623047,1.0299999713897705,1688148557.0386233
3.595191478,2.493941307067871,0.8774512410163879,-1.9980289936065674,1.0,0.0,0.0,0.2199999988079071,7.329999923706055,5.5,1.8600000143051147,89.5199966430664,0.8799999952316284,1688148557.147851
3.695429325,2.5349931716918945,0.9412260055541992,-1.8819218873977661,1.0,0.0,0.0,0.6700000166893005,7.300000190734863,-0.6299999952316284,-1.0099999904632568,58.04999923706055,0.6700000166893005,1688148557.2566707
3.796002388,2.5447282791137695,0.9699012637138367,-1.8878532648086548,1.0,0.0,0.0,0.10999999940395355,7.329999923706055,-0.25,0.6499999761581421,-8.880000114440918,0.5699999928474426,1688148557.311063
3.896303892,2.5592963695526123,1.017408847808838,-1.895257830619812,1.0,0.0,0.0,0.4099999964237213,7.329999923706055,1.5099999904632568,-0.699999988079071,-2.7899999618530273,0.4099999964237213,1688148557.4197319
3.99575591,2.570148229598999,1.0512150526046753,-1.9097110033035278,1.0,0.0,0.0,0.3400000035762787,7.329999923706055,1.5099999904632568,-0.44999998807907104,-5.260000228881836,0.36000001430511475,1688148557.5288386
4.09662795,2.5776829719543457,1.0727680921554565,-1.9118722677230835,1.0,0.0,0.0,0.10999999940395355,7.349999904632568,1.6699999570846558,-0.9100000262260437,1.8200000524520874,0.25999999046325684,1688148557.637864
4.196146011,2.580787181854248,1.081972599029541,-1.9179730415344238,1.0,0.05157628282904625,0.0,0.10999999940395355,7.349999904632568,1.5199999809265137,-0.25999999046325684,-1.2000000476837158,0.10000000149011612,1688148557.7464771
4.2960441110000005,2.5805110931396484,1.0807169675827026,-1.9113669395446777,1.0,0.32993561029434204,0.0,0.10999999940395355,7.349999904632568,-0.07000000029802322,-0.8100000023841858,2.0199999809265137,0.05000000074505806,1688148557.8556268
4.396010875,2.576885223388672,1.0702372789382935,-1.9148725271224976,1.0,0.42271187901496887,0.0,0.8199999928474426,7.349999904632568,1.7799999713897705,-0.05000000074505806,1.2899999618530273,0.05000000074505806,1688148557.964213
4.495422601,2.5715816020965576,1.0560319423675537,-1.9079684019088745,1.0,0.42271187901496887,0.0,2.2899999618530273,7.199999809265137,3.940000057220459,-0.9399999976158142,6.940000057220459,0.25999999046325684,1688148558.0192
4.595855951,2.556767463684082,1.0111966133117676,-1.900575876235962,1.0,0.42271187901496887,0.0,2.380000114440918,7.130000114440918,1.3700000047683716,-0.07000000029802322,1.850000023841858,0.4099999964237213,1688148558.1278338
4.695239305,2.5351755619049072,0.9460299611091614,-1.89840567111969,1.0,0.42271187901496887,0.0,2.319999933242798,7.130000114440918,2.7200000286102295,-1.7300000190734863,5.050000190734863,0.6200000047683716,1688148558.236479
4.795049429,2.5072238445281982,0.8661490082740784,-1.887241244316101,1.0,0.42271187901496887,0.0,2.2899999618530273,7.150000095367432,0.8399999737739563,-0.7900000214576721,10.34000015258789,0.7200000286102295,1688148558.3460124
4.8957026,2.475747585296631,0.7703647017478943,-1.874036192893982,1.0,0.40208137035369873,0.0,2.259999990463257,7.150000095367432,2.2799999713897705,0.3700000047683716,7.610000133514404,0.8799999952316284,1688148558.4548705
4.995334625,2.441429615020752,0.6611328125,-1.8663902282714844,1.0,0.39176610112190247,0.0,2.25,7.150000095367432,0.9100000262260437,3.109999895095825,-2.450000047683716,1.0299999713897705,1688148558.5635877
5.095241069,2.4227585792541504,0.6016610264778137,-1.8569806814193726,1.0,0.09280678629875183,0.0,2.2300000190734863,7.150000095367432,0.5199999809265137,0.9800000190734863,10.210000038146973,1.1299999952316284,1688148558.6180897
5.195908784,2.385037660598755,0.4795904755592346,-1.855372667312622,1.0,0.08249153196811676,0.0,0.7300000190734863,7.179999828338623,0.9599999785423279,-2.4600000381469727,6.429999828338623,1.1299999952316284,1688148558.726946
5.296071529,2.350980758666992,0.3669191300868988,-1.8508727550506592,1.0,0.0,0.0,0.20000000298023224,7.329999923706055,-3.2899999618530273,-0.5,8.039999961853027,1.0800000429153442,1688148558.835702
5.395713329,2.321202516555786,0.26515477895736694,-1.842519998550415,1.0,0.0,0.0,0.10999999940395355,7.349999904632568,-2.130000114440918,-1.4500000476837158,0.6399999856948853,0.9800000190734863,1688148558.9448085
5.495911121,2.295459508895874,0.1751883178949356,-1.832249641418457,1.0,0.0,0.0,0.10999999940395355,7.349999904632568,-0.1599999964237213,0.07999999821186066,10.329999923706055,0.8799999952316284,1688148559.0533304
5.595890998,2.273636817932129,0.09649062156677246,-1.8367120027542114,1.0,0.0,0.0,0.10999999940395355,7.349999904632568,-2.180000066757202,-0.23000000417232513,2.259999990463257,0.8299999833106995,1688148559.162405
5.695928335,2.264030694961548,0.061617884784936905,-1.825588583946228,1.0,0.0,0.0,0.10999999940395355,7.349999904632568,-3.200000047683716,1.340000033378601,7.880000114440918,0.6700000166893005,1688148559.2171032
5.795468568,2.2476165294647217,-0.0005110818892717361,-1.8281620740890503,1.0,0.0,0.0,0.10999999940395355,7.349999904632568,-0.09000000357627869,0.18000000715255737,-2.3399999141693115,0.6200000047683716,1688148559.326235
5.895938634,2.23403263092041,-0.05158822983503342,-1.8232556581497192,1.0,0.0,0.0,0.10999999940395355,7.349999904632568,-1.7300000190734863,-0.23999999463558197,0.5199999809265137,0.5199999809265137,1688148559.435431
5.995782137,2.223637104034424,-0.091864675283432,-1.8145533800125122,1.0,0.0,0.0,0.10999999940395355,7.349999904632568,-0.7200000286102295,-1.4800000190734863,4.559999942779541,0.4099999964237213,1688148559.5436692
6.095357179,2.2158334255218506,-0.12186312675476074,-1.8167330026626587,1.0,0.0,0.0,0.10999999940395355,7.349999904632568,-0.27000001072883606,0.36000001430511475,-0.05000000074505806,0.3100000023841858,1688148559.6530066
6.195028305,2.2108991146087646,-0.14174358546733856,-1.8168511390686035,1.0,0.0,0.0,0.10999999940395355,7.349999904632568,-1.1100000143051147,-0.5699999928474426,1.9800000190734863,0.25999999046325684,1688148559.7615008
6.295761585,2.209462881088257,-0.14787237346172333,-1.816515326499939,1.0,0.0,0.22678303718566895,0.10999999940395355,7.349999904632568,-0.75,-0.8399999737739563,2.5999999046325684,0.10000000149011612,1688148559.81595
6.395246267,2.208125114440918,-0.15287426114082336,-1.8168734312057495,1.0,0.0,0.5979491472244263,0.6299999952316284,7.329999923706055,0.7699999809265137,-0.5699999928474426,1.9600000381469727,0.10000000149011612,1688148559.9252455
6.4954712390000005,2.208142042160034,-0.15267503261566162,-1.8170244693756104,1.0,0.0,0.7938169240951538,0.7799999713897705,7.329999923706055,0.25,-0.7599999904632568,0.9900000095367432,0.0,1688148560.0339108
6.595949649,2.208142042160034,-0.15271234512329102,-1.8171173334121704,1.0,0.0,0.7938169240951538,0.6100000143051147,7.329999923706055,-0.18000000715255737,-0.019999999552965164,0.550000011920929,0.0,1688148560.1429424
6.695896864,2.2081546783447266,-0.15266963839530945,-1.8173480033874512,1.0,0.0,1.0,0.25,7.349999904632568,0.23000000417232513,-1.1100000143051147,1.2400000095367432,0.0,1688148560.2517815
6.79578495,2.2081305980682373,-0.1526309996843338,-1.8177894353866577,1.0,0.0,1.0,0.5799999833106995,7.329999923706055,0.15000000596046448,-0.029999999329447746,0.6899999976158142,0.0,1688148560.3602026
6.895773649,2.2081234455108643,-0.15260204672813416,-1.8181939125061035,1.0,0.12372203916311264,1.0,0.3400000035762787,7.329999923706055,-0.05999999865889549,-1.0700000524520874,1.7100000381469727,0.0,1688148560.4147418
6.995539665,2.2081029415130615,-0.15274593234062195,-1.8179036378860474,1.0,0.1340373009443283,1.0,0.3700000047683716,7.329999923706055,-0.14000000059604645,-0.20000000298023224,0.3799999952316284,0.05000000074505806,1688148560.5237422
7.095754861,2.206685781478882,-0.15628555417060852,-1.822859764099121,1.0,0.15466780960559845,1.0,0.8899999856948853,7.329999923706055,-0.10999999940395355,-0.699999988079071,-2.0899999141693115,0.0,1688148560.632919
7.195963621,2.2032227516174316,-0.16354107856750488,-1.8376039266586304,1.0,0.2680746018886566,1.0,1.2400000095367432,7.300000190734863,0.09000000357627869,-0.6100000143051147,-7.71999979019165,0.10000000149011612,1688148560.7418525
7.295904636,2.1929049491882324,-0.18372777104377747,-1.88188898563385,1.0,0.28867459297180176,1.0,2.0199999809265137,7.28000020980835,2.069999933242798,-0.75,-19.540000915527344,0.10000000149011612,1688148560.8509734
7.402466774,2.1683850288391113,-0.22307288646697998,-1.9679536819458008,1.0,0.28867459297180176,1.0,2.559999942779541,7.099999904632568,-0.4099999964237213,1.9199999570846558,-44.560001373291016,0.36000001430511475,1688148560.9598393
7.495126009,2.1509082317352295,-0.2489062249660492,-2.032881259918213,1.0,0.28867459297180176,1.0,2.559999942779541,7.130000114440918,3.049999952316284,-0.699999988079071,-65.55000305175781,0.5199999809265137,1688148561.0141737
7.595401287,2.102506160736084,-0.30554527044296265,-2.180382013320923,1.0,0.2783593237400055,1.0,2.5399999618530273,7.130000114440918,1.8300000429153442,-4.159999847412109,-80.22000122070312,0.6200000047683716,1688148561.123373
7.695240974,2.0337703227996826,-0.36393675208091736,-2.3622703552246094,1.0,0.2783593237400055,1.0,2.5,7.150000095367432,1.5099999904632568,-0.7099999785423279,-108.51000213623047,0.7699999809265137,1688148561.2318187
7.795081853,1.9445574283599854,-0.41461074352264404,-2.567096710205078,1.0,0.2783593237400055,1.0,2.4700000286102295,7.150000095367432,0.5199999809265137,-3.0899999141693115,-104.1500015258789,0.8799999952316284,1688148561.3411472
7.895524263,1.8360333442687988,-0.450039803981781,-2.7942895889282227,1.0,0.2783593237400055,1.0,2.430000066757202,7.150000095367432,0.3799999952316284,-3.7100000381469727,-113.5,1.0299999713897705,1688148561.4499693
7.995750427,1.7127512693405151,-0.46032944321632385,-3.032745838165283,1.0,0.2783593237400055,1.0,2.380000114440918,7.150000095367432,1.940000057220459,-0.6399999856948853,-132.97999572753906,1.0800000429153442,1688148561.558726
8.095620393,1.6479449272155762,-0.4549602270126343,3.129378080368042,1.0,0.28867459297180176,1.0,2.3499999046325684,7.150000095367432,1.159999966621399,-2.4100000858306885,-125.5,1.1299999952316284,1688148561.6132052
8.195400714,1.5172914266586304,-0.41905924677848816,2.873883008956909,1.0,0.5258033871650696,0.9897152781486511,2.3399999141693115,7.150000095367432,0.7400000095367432,-3.4100000858306885,-141.16000366210938,1.2400000095367432,1688148561.7218661
8.295482397,1.3942432403564453,-0.3485334813594818,2.6191928386688232,1.0,1.0,0.0,2.309999942779541,7.150000095367432,2.4000000953674316,-2.009999990463257,-137.5,1.2899999618530273,1688148561.831019
8.395609617,1.2858790159225464,-0.24743147194385529,2.410052537918091,1.0,1.0,-0.9588000178337097,2.559999942779541,7.130000114440918,3.3299999237060547,-3.940000057220459,-119.01000213623047,1.340000033378601,1688148561.9399936
8.496032714,1.1739616394042969,-0.14643271267414093,2.4617831707000732,1.0,1.0,-0.9588000178337097,2.440000057220459,7.150000095367432,1.649999976158142,4.920000076293945,39.4900016784668,1.3899999856948853,1688148562.048773
8.598777294,1.0449800491333008,-0.07449237257242203,2.685033082962036,1.0,1.0,-0.9588000178337097,2.3299999237060547,7.150000095367432,2.359999895095825,4.710000038146973,118.27999877929688,1.3899999856948853,1688148562.157714
8.695906162,0.9744197130203247,-0.05110747739672661,2.810384750366211,1.0,1.0,-0.9588000178337097,2.2100000381469727,7.179999828338623,1.7000000476837158,4.650000095367432,131.67999267578125,1.440000057220459,1688148562.2118773
8.795857191,0.8261842131614685,-0.030183866620063782,3.0516469478607178,1.0,1.0,-0.9588000178337097,2.2100000381469727,7.179999828338623,-7.099999904632568,-0.25999999046325684,131.7100067138672,1.440000057220459,1688148562.3210537
8.895354986,0.6760749220848083,-0.045742884278297424,-2.9896068572998047,1.0,1.0,-0.9588000178337097,2.2100000381469727,7.179999828338623,4.900000095367432,2.119999885559082,127.5999984741211,1.5,1688148562.4300334
